Time C1,Pressure C1, Volume C1,Time C2,Pressure C2, Volume C2,Time C3,Pressure C3, Volume C3
0.382,1.62637,8.82817,0.197,3.32964,17.9672,2.454,2.21038,17.1334
0.383,1.63949,9.22634,0.198,3.41033,18.2881,2.455,2.23872,17.7992
0.384,1.67123,9.62118,0.199,3.5245,18.6115,2.456,2.28867,18.491
0.385,1.73336,10.0227,0.2,3.56523,18.9507,2.457,2.35956,19.2354
0.386,1.79688,10.42,0.201,3.59318,19.2876,2.458,2.39888,20.0344
0.387,1.85282,10.8345,0.202,3.57599,19.6293,2.459,2.43843,20.8371
0.388,1.90868,11.2462,0.203,3.57001,19.9825,2.46,2.45794,21.6387
0.389,1.93722,11.6731,0.204,3.55713,20.3419,2.461,2.48237,22.4412
0.39,1.95377,12.113,0.205,3.53836,20.6943,2.462,2.47866,23.2413
0.391,1.94855,12.5624,0.206,3.48831,21.0384,2.463,2.4752,24.0037
0.392,1.9241,13.0004,0.207,3.47329,21.3862,2.464,2.4726,24.736
0.393,1.90437,13.4359,0.208,3.45814,21.7358,2.465,2.51062,25.4884
0.394,1.90356,13.8303,0.209,3.43008,22.0756,2.466,2.52158,26.2566
0.395,1.90446,14.2202,0.21,3.40527,22.4042,2.467,2.54375,27.0516
0.396,1.89538,14.6067,0.211,3.40236,22.7223,2.468,2.57663,27.8547
0.397,1.89975,15.0099,0.212,3.39357,23.0323,2.469,2.59791,28.6649
0.398,1.91148,15.4123,0.213,3.41072,23.3584,2.47,2.63503,29.4513
0.399,1.92367,15.8153,0.214,3.41194,23.6904,2.471,2.66222,30.1684
0.4,1.92609,16.2199,0.215,3.42442,23.9617,2.472,2.70019,30.8302
0.401,1.92987,16.6192,0.216,3.42265,24.1915,2.473,2.77237,31.4807
0.402,1.93993,16.9655,0.217,3.43332,24.4232,2.474,2.79672,32.1117
0.403,1.94902,17.3105,0.218,3.44683,24.6517,2.475,2.84459,32.6647
0.404,2.00191,17.6559,0.219,3.4672,24.8849,2.476,2.9033,33.1448
0.405,2.0581,18.0162,0.22,3.46901,25.1232,2.477,2.97409,33.6075
0.406,2.09654,18.3709,0.221,3.4761,25.3688,2.478,3.0089,34.0455
0.407,2.14648,18.7395,0.222,3.48569,25.6295,2.479,3.09466,34.4208
0.408,2.23254,19.1157,0.223,3.49891,25.9011,2.48,3.15065,34.7406
0.409,2.30948,19.515,0.224,3.5054,26.1924,2.481,3.2237,35.0695
0.41,2.3956,19.8884,0.225,3.53959,26.5614,2.482,3.26422,35.3957
0.411,2.49379,20.2891,0.226,3.55894,26.9798,2.483,3.31847,35.7156
0.412,2.57629,20.7075,0.227,3.5967,27.4099,2.484,3.36069,36.0107
0.413,2.66936,21.1394,0.228,3.61259,27.8532,2.485,3.39826,36.3336
0.414,2.76788,21.5747,0.229,3.65731,28.3162,2.486,3.44603,36.6746
0.415,2.85146,22.0153,0.23,3.67707,28.7893,2.487,3.48176,37.0185
0.416,2.91898,22.4213,0.231,3.70613,29.2677,2.488,3.51631,37.329
0.417,2.99245,22.83,0.232,3.75166,29.77,2.489,3.53837,37.6197
0.418,3.08146,23.2336,0.233,3.77704,30.3157,2.49,3.55488,37.9069
0.419,3.16129,23.6309,0.234,3.79854,30.8871,2.491,3.58011,38.2691
0.42,3.24159,23.9412,0.235,3.83085,31.4536,2.492,3.59686,38.6266
0.421,3.29249,24.2431,0.236,3.85532,32.0241,2.493,3.62122,38.9692
0.422,3.32629,24.4762,0.237,3.88497,32.5831,2.494,3.61688,39.2851
0.423,3.35629,24.7358,0.238,3.90381,33.1424,2.495,3.62964,39.5756
0.424,3.3641,25.0349,0.239,3.91045,33.7306,2.496,3.60807,39.8235
0.425,3.35077,25.3963,0.24,3.93361,34.3356,2.497,3.62336,40.0199
0.426,3.35041,25.819,0.241,3.95772,34.9553,2.498,3.60755,40.1167
0.427,3.34214,26.2586,0.242,3.95947,35.5805,2.499,3.59489,40.0874
0.428,3.3207,26.6339,0.243,3.96577,36.1588,2.5,3.58586,39.9877
0.429,3.31322,27.0636,0.244,3.98724,36.7062,2.501,3.61417,39.8337
0.43,3.32864,27.5345,0.245,3.98018,37.185,2.502,3.64936,39.6281
0.431,3.36322,28.062,0.246,3.98336,37.6469,2.503,3.80692,39.4231
0.432,3.49385,28.6597,0.247,4.0065,38.0613,2.504,4.15663,39.227
0.433,3.78373,29.3273,0.248,4.00005,38.4674,2.505,4.80591,39.0392
0.434,4.31263,30.0985,0.249,4.01427,38.9187,2.506,5.90364,38.8058
0.435,5.15681,30.9213,0.25,4.0234,39.4102,2.507,7.47019,38.5547
0.436,6.4042,31.7621,0.251,4.02198,39.9726,2.508,9.53632,38.2529
0.437,8.22505,32.6179,0.252,4.02262,40.5611,2.509,12.334,37.9112
0.438,11.0584,33.5176,0.253,4.02804,41.1511,2.51,16.0032,37.5198
0.439,15.3294,34.386,0.254,4.02383,41.6997,2.511,20.2901,37.1029
0.44,20.6691,35.2223,0.255,4.04216,42.1854,2.512,24.8959,36.6782
0.441,26.9511,35.9747,0.256,4.08385,42.6839,2.513,29.603,36.2569
0.442,33.7832,36.6687,0.257,4.18217,43.2346,2.514,34.3067,35.77
0.443,40.6685,37.3266,0.258,4.40883,43.7947,2.515,39.0845,35.2493
0.444,47.7519,37.9415,0.259,4.8479,44.3916,2.516,43.6845,34.7312
0.445,54.59,38.4498,0.26,5.55527,44.9784,2.517,47.8225,34.2411
0.446,60.4824,38.8667,0.261,6.60789,45.557,2.518,51.5031,33.6977
0.447,65.1391,39.1632,0.262,8.05761,46.0983,2.519,54.7542,33.1218
0.448,68.6539,39.3498,0.263,10.3195,46.6446,2.52,57.5169,32.5428
0.449,71.1115,39.379,0.264,13.9801,47.1605,2.521,59.8087,31.9884
0.45,72.7411,39.2777,0.265,18.2027,47.6879,2.522,61.7034,31.3726
0.451,73.96,39.0515,0.266,22.414,48.1116,2.523,63.2779,30.7204
0.452,74.9425,38.6879,0.267,26.8145,48.4432,2.524,64.5844,30.0405
0.453,75.8223,38.1548,0.268,31.1869,48.6773,2.525,65.662,29.3416
0.454,76.6517,37.4639,0.269,35.2277,48.8453,2.526,66.5085,28.5791
0.455,77.52,36.5968,0.27,38.9138,48.9079,2.527,67.1554,27.7658
0.456,78.3649,35.5717,0.271,42.2208,48.8874,2.528,67.6491,26.9528
0.457,79.1489,34.4165,0.272,45.0927,48.7494,2.529,67.9869,26.1417
0.458,79.9208,33.1159,0.273,47.5327,48.5353,2.53,68.1549,25.3392
0.459,80.713,31.6724,0.274,49.4601,48.1785,2.531,68.203,24.5516
0.46,81.4913,30.1167,0.275,50.9874,47.6976,2.532,68.1303,23.7035
0.461,82.2949,28.5476,0.276,52.2221,47.0957,2.533,67.9418,22.8125
0.462,83.1209,26.9325,0.277,53.2211,46.3643,2.534,67.5952,21.8857
0.463,83.9929,25.3725,0.278,54.0277,45.5353,2.535,67.1118,20.9365
0.464,84.9233,23.8033,0.279,54.6658,44.6292,2.536,66.4653,19.9831
0.465,85.8842,22.2281,0.28,55.1575,43.5993,2.537,65.649,19.034
0.466,86.8256,20.6495,0.281,55.5201,42.4454,2.538,64.6578,18.1269
0.467,87.7703,19.0629,0.282,55.7388,41.1657,2.539,63.4663,17.2774
0.468,88.5868,17.5331,0.283,55.856,39.7875,2.54,62.0024,16.5133
0.469,89.2291,16.1686,0.284,55.7999,38.3652,2.541,60.2744,15.8214
0.47,89.5659,14.9112,0.285,55.6382,36.895,2.542,58.225,15.2185
0.471,89.5936,13.7741,0.286,55.3478,35.4483,2.543,55.8479,14.7057
0.472,89.1691,12.7486,0.287,54.9287,34.0331,2.544,53.1495,14.233
0.473,88.2375,11.8105,0.288,54.4355,32.7093,2.545,50.1166,13.8127
0.474,86.6298,10.9691,0.289,53.8329,31.4775,2.546,46.7253,13.4637
0.475,84.2712,10.1528,0.29,53.1905,30.2747,2.547,42.9449,13.1884
0.476,81.0324,9.43909,0.291,52.528,29.1282,2.548,38.587,12.9609
0.477,76.9336,8.82354,0.292,51.8615,27.9754,2.549,33.2875,12.7689
0.478,72.0208,8.29927,0.293,51.3474,26.8366,2.55,27.7914,12.6379
0.479,66.3631,7.79661,0.294,50.9805,25.7389,2.551,23.149,12.5544
0.48,59.7077,7.38019,0.295,50.6965,24.7079,2.552,19.3118,12.5297
0.481,52.4001,7.02244,0.296,50.3348,23.7642,2.553,15.9533,12.5416
0.482,45.6019,6.75581,0.297,49.8207,22.9155,2.554,13.0384,12.64
0.483,39.2577,6.54579,0.298,49.1845,22.1321,2.555,10.4934,12.8353
0.484,33.1959,6.4131,0.299,48.4117,21.4446,2.556,8.32855,13.1189
0.485,27.5612,6.3204,0.3,47.4818,20.8054,2.557,6.4915,13.5452
0.486,22.6515,6.30687,0.301,46.403,20.2497,2.558,5.01626,14.0032
0.487,18.4646,6.33711,0.302,45.1417,19.7623,2.559,3.88097,14.4271
0.488,14.9117,6.43587,0.303,43.71,19.3616,2.56,3.09349,14.8874
0.489,11.8752,6.56862,0.304,42.1509,18.9954,2.561,2.6034,15.3931
0.49,9.27762,6.76074,0.305,40.4673,18.7015,2.562,2.34615,15.9348
0.491,7.10267,6.97396,0.306,38.4883,18.4105,2.563,2.22565,16.5309
0.492,5.31883,7.23354,0.307,35.7064,18.1546,2.564,2.25942,17.1425
0.493,3.93323,7.51752,0.308,32.624,17.9193,2.565,2.30901,17.7492
0.494,2.92514,7.84335,0.309,29.9254,17.736,2.566,2.38412,18.3835
0.495,2.23708,8.19123,0.31,27.5043,17.5652,2.567,2.43357,19.0483
0.496,1.81869,8.5713,0.311,25.0695,17.4327,2.568,2.47082,19.7528
0.497,1.63313,8.96317,0.312,22.4887,17.3099,2.569,2.495,20.4925
0.498,1.58745,9.37679,0.313,19.9292,17.2134,2.57,2.50692,21.2501
0.499,1.6198,9.79639,0.314,17.7247,17.099,2.571,2.50609,21.9927
0.5,1.66589,10.2304,0.315,16.001,17.0026,2.572,2.49382,22.7424
0.501,1.72713,10.6799,0.316,14.5696,16.8952,2.573,2.5008,23.4792
0.502,1.77803,11.1498,0.317,13.2483,16.7785,2.574,2.5132,24.2486
0.503,1.86499,11.6175,0.318,12.0486,16.6959,2.575,2.52606,25.042
0.504,1.93212,12.0893,0.319,10.9858,16.6488,2.576,2.53706,25.8601
0.505,1.97488,12.5517,0.32,10.0141,16.6167,2.577,2.56721,26.6901
0.506,1.99936,13.0143,0.321,9.13235,16.6017,2.578,2.60853,27.4996
0.507,1.99632,13.4693,0.322,8.26836,16.6377,2.579,2.62505,28.2393
0.508,1.979,13.9222,0.323,7.19854,16.7323,2.58,2.65615,28.961
0.509,1.98143,14.3714,0.324,6.1697,16.8559,2.581,2.70179,29.6666
0.51,1.97398,14.8239,0.325,5.23672,17.0087,2.582,2.74804,30.365
0.511,1.96344,15.2647,0.326,4.46969,17.2042,2.583,2.79327,31.0366
0.512,1.93954,15.7006,0.327,3.86617,17.4303,2.584,2.84805,31.6923
0.513,1.95085,16.1227,0.328,3.47616,17.6853,2.585,2.87997,32.3321
0.514,1.94138,16.5406,0.329,3.26565,17.9749,2.586,2.94062,32.9207
0.515,1.96541,16.9522,0.33,3.21629,18.2722,2.587,2.99697,33.4272
0.516,1.9831,17.3613,0.331,3.31219,18.5835,2.588,3.05798,33.8748
0.517,2.00338,17.7425,0.332,3.44426,18.8878,2.589,3.12619,34.246
0.518,2.01832,18.1149,0.333,3.59247,19.1937,2.59,3.19017,34.6094
0.519,2.05079,18.4886,0.334,3.67708,19.5162,2.591,3.22289,34.9335
0.52,2.08733,18.8684,0.335,3.67298,19.8404,2.592,3.2835,35.2563
0.521,2.14422,19.2183,0.336,3.65936,20.171,2.593,3.31615,35.5439
0.522,2.18743,19.5682,0.337,3.62906,20.5032,2.594,3.37805,35.8921
0.523,2.24896,19.9286,0.338,3.60577,20.8459,2.595,3.41873,36.2584
0.524,2.301,20.3153,0.339,3.55275,21.1884,2.596,3.46319,36.5989
0.525,2.39765,20.7225,0.34,3.53037,21.5206,2.597,3.4926,36.8675
0.526,2.48904,21.1508,0.341,3.49991,21.8352,2.598,3.52775,37.0482
0.527,2.56206,21.5997,0.342,3.49863,22.1425,2.599,3.53644,37.2097
0.528,2.64789,22.0678,0.343,3.47754,22.4343,2.6,3.59115,37.4543
0.529,2.76765,22.5334,0.344,3.48211,22.7306,2.601,3.60973,37.7151
0.53,2.87996,23.0078,0.345,3.48294,23.0189,2.602,3.61423,37.9823
0.531,2.99244,23.4886,0.346,3.50254,23.32,2.603,3.61668,38.2281
0.532,3.08022,23.984,0.347,3.51828,23.6355,2.604,3.62277,38.4381
0.533,3.21098,24.4719,0.348,3.52957,23.9551,2.605,3.62185,38.628
0.534,3.28883,24.9555,0.349,3.51628,24.2572,2.606,3.62454,38.7899
0.535,3.37109,25.3505,0.35,3.5282,24.5556,2.607,3.6168,38.8859
0.536,3.44788,25.7272,0.351,3.53436,24.8366,2.608,3.6171,38.9437
0.537,3.50275,26.0332,0.352,3.5543,25.1173,2.609,3.59401,38.9539
0.538,3.50714,26.3596,0.353,3.54108,25.3813,2.61,3.5895,38.9144
0.539,3.51295,26.7329,0.354,3.57545,25.649,2.611,3.58964,38.8447
0.54,3.53361,27.1657,0.355,3.58099,25.8979,2.612,3.67489,38.7729
0.541,3.53808,27.6799,0.356,3.59395,26.178,2.613,3.87772,38.6852
0.542,3.52048,28.2139,0.357,3.6106,26.4902,2.614,4.30139,38.5899
0.543,3.52133,28.6777,0.358,3.64715,26.8704,2.615,5.06707,38.4574
0.544,3.5069,29.1543,0.359,3.67884,27.2872,2.616,6.28062,38.2868
0.545,3.52357,29.6157,0.36,3.69866,27.7234,2.617,7.96803,38.081
0.546,3.54355,30.1346,0.361,3.71906,28.1673,2.618,10.2441,37.8784
0.547,3.58613,30.7826,0.362,3.73628,28.703,2.619,13.3011,37.7273
0.548,3.75436,31.495,0.363,3.76697,29.3054,2.62,17.1723,37.5355
0.549,4.1372,32.2821,0.364,3.80724,29.8149,2.621,21.6104,37.2503
0.55,4.76022,33.0868,0.365,3.78113,30.2318,2.622,26.2752,36.9269
0.551,5.72536,33.9388,0.366,3.77036,30.6818,2.623,30.9928,36.5743
0.552,7.14553,34.7832,0.367,3.78602,31.1618,2.624,35.7732,36.204
0.553,9.25253,35.6288,0.368,3.79977,31.6786,2.625,40.5592,35.8007
0.554,12.6165,36.437,0.369,3.84425,32.2129,2.626,45.066,35.3233
0.555,17.3531,37.2312,0.37,3.89914,32.7283,2.627,49.0921,34.8131
0.556,23.0953,37.9581,0.371,3.92145,33.2246,2.628,52.6748,34.2909
0.557,29.7005,38.6601,0.372,3.92707,33.7676,2.629,55.7888,33.752
0.558,36.6438,39.2879,0.373,3.93843,34.3509,2.63,58.4375,33.1943
0.559,43.6718,39.8557,0.374,3.9697,34.9211,2.631,60.6219,32.6019
0.56,50.8561,40.3047,0.375,3.97036,35.4724,2.632,62.4488,31.9745
0.561,57.5348,40.6802,0.376,3.98738,36.0307,2.633,63.9669,31.3229
0.562,63.0338,40.9575,0.377,3.98888,36.5829,2.634,65.2172,30.6619
0.563,67.3,41.1607,0.378,4.01545,37.0826,2.635,66.2036,29.9585
0.564,70.4345,41.2214,0.379,4.00768,37.5332,2.636,67.0015,29.185
0.565,72.4947,41.1667,0.38,3.99593,38.0155,2.637,67.6014,28.3931
0.566,73.8755,40.9524,0.381,4.0097,38.5233,2.638,68.0568,27.6049
0.567,74.9331,40.599,0.382,4.01086,39.05,2.639,68.3518,26.7928
0.568,75.8395,40.0698,0.383,4.02212,39.5828,2.64,68.4962,25.9429
0.569,76.7068,39.3933,0.384,4.03278,40.1714,2.641,68.4847,25.0628
0.57,77.5291,38.5614,0.385,4.01166,40.7854,2.642,68.3478,24.1403
0.571,78.3446,37.5914,0.386,4.01873,41.3634,2.643,68.0704,23.1991
0.572,79.158,36.4581,0.387,4.0223,41.8865,2.644,67.6908,22.2427
0.573,79.914,35.1795,0.388,4.05227,42.3479,2.645,67.1412,21.281
0.574,80.6641,33.7605,0.389,4.11068,42.7759,2.646,66.4565,20.2895
0.575,81.3836,32.2167,0.39,4.30553,43.2508,2.647,65.6291,19.3307
0.576,82.0766,30.6485,0.391,4.63857,43.7417,2.648,64.6488,18.4316
0.577,82.7473,29.0261,0.392,5.21947,44.2546,2.649,63.4485,17.5861
0.578,83.477,27.445,0.393,6.1,44.7627,2.65,61.9806,16.8042
0.579,84.2316,25.8623,0.394,7.35681,45.293,2.651,60.1986,16.0903
0.58,85.0686,24.2707,0.395,9.17227,45.8194,2.652,58.1203,15.4421
0.581,85.941,22.674,0.396,12.2595,46.3961,2.653,55.6889,14.8673
0.582,86.8355,21.0452,0.397,16.3066,46.9365,2.654,52.9452,14.3706
0.583,87.7059,19.4327,0.398,20.4503,47.4309,2.655,49.8193,13.9666
0.584,88.4911,17.9515,0.399,24.7001,47.8349,2.656,46.3253,13.6341
0.585,89.1333,16.5793,0.4,29.0482,48.1635,2.657,42.4267,13.3782
0.586,89.5574,15.3677,0.401,33.1856,48.4023,2.658,37.8584,13.1753
0.587,89.6172,14.2858,0.402,36.9988,48.5458,2.659,32.3781,12.9817
0.588,89.2361,13.2437,0.403,40.4355,48.5031,2.66,26.9873,12.7489
0.589,88.2825,12.2941,0.404,43.4772,48.2721,2.661,22.4624,12.622
0.59,86.6712,11.4042,0.405,46.0672,47.9735,2.662,18.6752,12.5853
0.591,84.2822,10.6133,0.406,48.1801,47.6525,2.663,15.3799,12.6302
0.592,81.0222,9.86764,0.407,49.869,47.2101,2.664,12.5302,12.7516
0.593,76.8678,9.21289,0.408,51.2104,46.6613,2.665,10.057,12.9541
0.594,71.8751,8.62835,0.409,52.2931,45.9929,2.666,7.969,13.2094
0.595,66.0754,8.14541,0.41,53.1691,45.198,2.667,6.20892,13.5444
0.596,59.2269,7.71942,0.411,53.8519,44.3146,2.668,4.78535,13.92
0.597,51.7663,7.37538,0.412,54.3986,43.36,2.669,3.69474,14.3558
0.598,44.9409,7.06508,0.413,54.8292,42.2775,2.67,2.94387,14.8548
0.599,38.6043,6.83472,0.414,55.1146,41.0694,2.671,2.45284,15.4242
0.6,32.577,6.66079,0.415,55.2703,39.792,2.672,2.23439,16.0432
0.601,26.9673,6.56676,0.416,55.2989,38.4626,2.673,2.14259,16.7144
0.602,22.1128,6.51389,0.417,55.1485,37.0783,2.674,2.16341,17.4377
0.603,17.9527,6.54349,0.418,54.8852,35.6624,2.675,2.21215,18.1917
0.604,14.4726,6.60053,0.419,54.5168,34.2834,2.676,2.30116,18.9144
0.605,11.4861,6.72156,0.42,54.059,32.9669,2.677,2.36379,19.6489
0.606,8.95444,6.87242,0.421,53.5373,31.654,2.678,2.41477,20.4048
0.607,6.84067,7.08275,0.422,52.9401,30.3702,2.679,2.4354,21.1874
0.608,5.13637,7.32588,0.423,52.3061,29.1266,2.68,2.47244,21.9937
0.609,3.81098,7.61806,0.424,51.7438,27.9421,2.681,2.46914,22.8232
0.61,2.86566,7.94571,0.425,51.307,26.7639,2.682,2.47485,23.6727
0.611,2.19825,8.32956,0.426,50.9895,25.5917,2.683,2.49445,24.5263
0.612,1.82798,8.72737,0.427,50.7894,24.4999,2.684,2.51042,25.3193
0.613,1.65863,9.15319,0.428,50.5441,23.4969,2.685,2.48899,26.0959
0.614,1.64314,9.58765,0.429,50.1315,22.6083,2.686,2.50337,26.8614
0.615,1.68339,10.0437,0.43,49.5359,21.8498,2.687,2.52757,27.6363
0.616,1.73943,10.5041,0.431,48.7586,21.1576,2.688,2.57081,28.407
0.617,1.78166,10.9764,0.432,47.8298,20.5436,2.689,2.58072,29.1782
0.618,1.86423,11.4646,0.433,46.7482,20.0017,2.69,2.62616,29.962
0.619,1.93545,11.9648,0.434,45.5005,19.5455,2.691,2.65489,30.7208
0.62,2.00307,12.4736,0.435,44.0687,19.1502,2.692,2.69048,31.3983
0.621,2.03607,12.9836,0.436,42.5562,18.8235,2.693,2.76103,32.0334
0.622,2.07031,13.4869,0.437,40.8894,18.5161,2.694,2.81159,32.6339
0.623,2.06952,13.9762,0.438,39.0085,18.2494,2.695,2.86319,33.1775
0.624,2.06948,14.4699,0.439,36.5087,18.0072,2.696,2.91225,33.6265
0.625,2.07457,14.965,0.44,33.4501,17.7954,2.697,2.96465,34.0326
0.626,2.06783,15.4593,0.441,30.707,17.5882,2.698,3.0371,34.3655
0.627,2.06257,15.9498,0.442,28.2874,17.3927,2.699,3.09743,34.686
0.628,2.05625,16.4426,0.443,25.9334,17.2256,2.7,3.161,34.9908
0.629,2.04907,16.9324,0.444,23.43,17.0955,2.701,3.20885,35.2854
0.63,2.05549,17.3891,0.445,20.8691,16.9683,2.702,3.24923,35.5692
0.631,2.07146,17.8107,0.446,18.5674,16.842,2.703,3.29189,35.8878
0.632,2.07908,18.2287,0.447,16.7527,16.7343,2.704,3.34349,36.244
0.633,2.0799,18.6411,0.448,15.2451,16.655,2.705,3.3865,36.6053
0.634,2.12762,19.1148,0.449,13.8618,16.581,2.706,3.42209,36.9446
0.635,2.14814,19.6234,0.45,12.5878,16.509,2.707,3.46156,37.2844
0.636,2.20192,19.995,0.451,11.4424,16.4592,2.708,3.48256,37.6194
0.637,2.23771,20.2554,0.452,10.4188,16.4314,2.709,3.51039,37.9739
0.638,2.29463,20.5357,0.453,9.45924,16.4394,2.71,3.52609,38.332
0.639,2.36068,20.8296,0.454,8.54349,16.4753,2.711,3.56418,38.6749
0.64,2.43768,21.1502,0.455,7.6184,16.5432,2.712,3.59253,39.0423
0.641,2.51755,21.4883,0.456,6.71152,16.6384,2.713,3.59589,39.3787
0.642,2.62938,21.8676,0.457,5.87543,16.7712,2.714,3.5947,39.6628
0.643,2.71801,22.2633,0.458,5.07168,16.9352,2.715,3.58641,39.8726
0.644,2.82964,22.6843,0.459,4.24468,17.1254,2.716,3.57935,40.0171
0.645,2.93812,23.1232,0.46,3.63901,17.3432,2.717,3.58157,40.1543
0.646,3.07678,23.5764,0.461,3.25177,17.5981,2.718,3.57773,40.2622
0.647,3.19859,24.0321,0.462,3.05032,17.9309,2.719,3.56978,40.3247
0.648,3.32991,24.456,0.463,2.95904,18.253,2.72,3.54829,40.3386
0.649,3.40556,24.8625,0.464,3.0029,18.5114,2.721,3.57297,40.2935
0.65,3.50065,25.2915,0.465,3.11827,18.7458,2.722,3.67286,40.191
0.651,3.5584,25.7233,0.466,3.2573,18.9612,2.723,3.87749,40.0356
0.652,3.59623,26.0921,0.467,3.35148,19.1814,2.724,4.34538,39.8789
0.653,3.59695,26.4367,0.468,3.40174,19.4055,2.725,5.16664,39.7407
0.654,3.63066,26.7721,0.469,3.37759,19.646,2.726,6.44065,39.6071
0.655,3.62499,27.1152,0.47,3.36216,19.8896,2.727,8.20175,39.4344
0.656,3.62102,27.4779,0.471,3.37341,20.1429,2.728,10.5588,39.2315
0.657,3.60853,27.8697,0.472,3.37163,20.3978,2.729,13.718,38.998
0.658,3.6218,28.2881,0.473,3.35352,20.6597,2.73,17.684,38.7856
0.659,3.61841,28.7311,0.474,3.3163,20.9242,2.731,22.1938,38.4726
0.66,3.60902,29.1564,0.475,3.29798,21.1875,2.732,26.888,38.0736
0.661,3.61593,29.5997,0.476,3.30178,21.4386,2.733,31.6013,37.6514
0.662,3.64658,30.1429,0.477,3.31086,21.6871,2.734,36.346,37.2144
0.663,3.73822,30.7634,0.478,3.3153,21.9079,2.735,41.1143,36.7111
0.664,3.98974,31.4975,0.479,3.29858,22.1229,2.736,45.5171,36.1745
0.665,4.4492,32.2766,0.48,3.31208,22.321,2.737,49.455,35.6166
0.666,5.20399,33.1187,0.481,3.33145,22.5359,2.738,52.9917,35.0499
0.667,6.38284,33.9629,0.482,3.34282,22.7556,2.739,56.0659,34.484
0.668,8.0964,34.795,0.483,3.36848,22.9875,2.74,58.6175,33.9295
0.669,10.7564,35.5825,0.484,3.38832,23.2034,2.741,60.7416,33.3394
0.67,14.8506,36.3726,0.485,3.39386,23.4264,2.742,62.4899,32.7366
0.671,20.0813,37.1386,0.486,3.40392,23.6378,2.743,63.9704,32.0756
0.672,26.3068,37.9262,0.487,3.41889,23.8762,2.744,65.1874,31.3738
0.673,33.1685,38.6398,0.488,3.44302,24.1114,2.745,66.183,30.5864
0.674,40.1353,39.2861,0.489,3.45123,24.367,2.746,66.9492,29.7516
0.675,47.2927,39.7385,0.49,3.45449,24.6302,2.747,67.5525,28.8842
0.676,54.4109,40.0107,0.491,3.47029,24.9264,2.748,67.9748,27.9936
0.677,60.6662,40.2348,0.492,3.49652,25.2378,2.749,68.2451,27.0715
0.678,65.6436,40.4567,0.493,3.55184,25.5728,2.75,68.3665,26.1351
0.679,69.4108,40.5542,0.494,3.57309,25.9067,2.751,68.3638,25.1864
0.68,72.007,40.5664,0.495,3.60214,26.2883,2.752,68.2329,24.227
0.681,73.718,40.4439,0.496,3.63138,26.7154,2.753,67.9486,23.2051
0.682,74.9048,40.2116,0.497,3.67662,27.1654,2.754,67.5053,22.1701
0.683,75.8543,39.8224,0.498,3.69308,27.6117,2.755,66.951,21.1465
0.684,76.7089,39.3059,0.499,3.71607,28.0759,2.756,66.2566,20.1425
0.685,77.535,38.615,0.5,3.73539,28.5364,2.757,65.4043,19.1744
0.686,78.3669,37.7673,0.501,3.74781,29.0233,2.758,64.3522,18.2493
0.687,79.1809,36.7516,0.502,3.75923,29.5188,2.759,63.084,17.3815
